
Parent(s): half.dat
  2.222031e-01   1.474494e-01   2.776368e-04
  2.269308e-01   1.463949e-01   2.745116e-04
  2.316584e-01   1.452675e-01   2.610390e-04
  2.363861e-01   1.438996e-01   2.587457e-04
  2.411138e-01   1.425149e-01   2.874579e-04
  2.458414e-01   1.415150e-01   2.276835e-04
  2.505691e-01   1.403901e-01   2.147482e-04
  2.552968e-01   1.390653e-01   2.005977e-04
  2.600244e-01   1.377398e-01   1.907907e-04
  2.647521e-01   1.365064e-01   1.868186e-04
  2.694797e-01   1.353960e-01   1.841102e-04
  2.742074e-01   1.343252e-01   1.817736e-04
  2.789350e-01   1.331562e-01   1.793912e-04
  2.836626e-01   1.320327e-01   1.771346e-04
  2.883903e-01   1.307905e-01   1.748819e-04
  2.931179e-01   1.293601e-01   1.724400e-04
  2.978455e-01   1.279554e-01   1.702578e-04
  3.025731e-01   1.266305e-01   1.681312e-04
  3.073007e-01   1.253323e-01   1.661185e-04
  3.120284e-01   1.239318e-01   1.639777e-04
  3.167560e-01   1.225726e-01   1.619177e-04
  3.214836e-01   1.213314e-01   1.601347e-04
  3.262112e-01   1.201287e-01   1.582294e-04
  3.309388e-01   1.189348e-01   1.564268e-04
  3.356663e-01   1.176280e-01   1.545605e-04
  3.403939e-01   1.162664e-01   1.528377e-04
  3.451215e-01   1.149511e-01   1.512395e-04
  3.498491e-01   1.136860e-01   1.499894e-04
  3.545767e-01   1.124251e-01   1.496885e-04
  3.593042e-01   1.110383e-01   1.492462e-04
  3.640318e-01   1.096385e-01   1.485072e-04
  3.687593e-01   1.082442e-01   1.475053e-04
  3.734869e-01   1.069342e-01   1.464128e-04
  3.782144e-01   1.056589e-01   1.454083e-04
  3.829420e-01   1.043705e-01   1.443900e-04
  3.876695e-01   1.031812e-01   1.436286e-04
  3.923970e-01   1.021488e-01   1.429236e-04
  3.971246e-01   1.010932e-01   1.422478e-04
  4.018521e-01   9.990291e-02   1.415384e-04
  4.065796e-01   9.863012e-02   1.406125e-04
  4.113071e-01   9.736359e-02   1.397978e-04
  4.160346e-01   9.605043e-02   1.388612e-04
  4.207621e-01   9.474674e-02   1.379543e-04
  4.254896e-01   9.351113e-02   1.370516e-04
  4.302171e-01   9.229250e-02   1.360961e-04
  4.349446e-01   9.108046e-02   1.352918e-04
  4.396720e-01   8.988046e-02   1.343841e-04
  4.443995e-01   8.868780e-02   1.335791e-04
  4.491270e-01   8.754648e-02   1.329978e-04
  4.538544e-01   8.641344e-02   1.328146e-04
  4.585819e-01   8.524628e-02   1.325541e-04
  4.633093e-01   8.399613e-02   1.318188e-04
  4.680368e-01   8.280525e-02   1.313089e-04
  4.727642e-01   8.165682e-02   1.308023e-04
  4.774916e-01   8.053878e-02   1.303244e-04
  4.822190e-01   7.949039e-02   1.298840e-04
  4.869464e-01   7.836287e-02   1.292643e-04
  4.916738e-01   7.715902e-02   1.285762e-04
  4.964012e-01   7.608179e-02   1.277218e-04
  5.011286e-01   7.508360e-02   1.269303e-04
  5.058560e-01   7.404787e-02   1.260504e-04
  5.105834e-01   7.292721e-02   1.251131e-04
  5.153108e-01   7.170251e-02   1.242063e-04
  5.200381e-01   7.052746e-02   1.232752e-04
  5.247655e-01   6.945232e-02   1.224347e-04
  5.294928e-01   6.836081e-02   1.215402e-04
  5.342202e-01   6.731819e-02   1.207221e-04
  5.389475e-01   6.628334e-02   1.199089e-04
  5.436748e-01   6.519921e-02   1.190478e-04
  5.484022e-01   6.410637e-02   1.182034e-04
  5.531295e-01   6.303779e-02   1.172813e-04
  5.578568e-01   6.201292e-02   1.164845e-04
  5.625841e-01   6.102240e-02   1.157075e-04
  5.673114e-01   6.009747e-02   1.149257e-04
  5.720387e-01   5.917892e-02   1.141183e-04
  5.767659e-01   5.824099e-02   1.131881e-04
  5.814932e-01   5.733838e-02   1.123151e-04
  5.862205e-01   5.642757e-02   1.113408e-04
  5.909477e-01   5.545888e-02   1.103532e-04
  5.956749e-01   5.444001e-02   1.093983e-04
  6.004022e-01   5.343513e-02   1.084202e-04
  6.051294e-01   5.253544e-02   1.075257e-04
  6.098566e-01   5.166457e-02   1.066063e-04
  6.145838e-01   5.077510e-02   1.057396e-04
  6.193110e-01   4.993198e-02   1.048852e-04
  6.240382e-01   4.914754e-02   1.040324e-04
  6.287654e-01   4.836198e-02   1.032183e-04
  6.334926e-01   4.754644e-02   1.023919e-04
  6.382198e-01   4.666875e-02   1.015982e-04
  6.429469e-01   4.576908e-02   1.008086e-04
  6.476741e-01   4.492463e-02   1.000839e-04
  6.524012e-01   4.414575e-02   9.951726e-05
  6.571283e-01   4.336291e-02   9.891687e-05
  6.618555e-01   4.259552e-02   9.835825e-05
  6.665826e-01   4.188561e-02   9.776170e-05
  6.713097e-01   4.119019e-02   9.716637e-05
  6.760368e-01   4.045412e-02   9.665648e-05
  6.807639e-01   3.969070e-02   9.604300e-05
  6.854909e-01   3.892613e-02   9.544165e-05
  6.902180e-01   3.813952e-02   9.484454e-05
  6.949451e-01   3.736388e-02   9.425214e-05
  6.996721e-01   3.664354e-02   9.369634e-05
  7.043992e-01   3.592378e-02   9.310029e-05
  7.091262e-01   3.521043e-02   9.257873e-05
  7.138532e-01   3.454878e-02   9.205080e-05
  7.185802e-01   3.390859e-02   9.154316e-05
  7.233072e-01   3.327205e-02   9.105539e-05
  7.280342e-01   3.263452e-02   9.052039e-05
  7.327612e-01   3.197008e-02   9.002819e-05
  7.374882e-01   3.132435e-02   8.949890e-05
  7.422151e-01   3.066595e-02   8.898320e-05
  7.469421e-01   2.998423e-02   8.846425e-05
  7.516690e-01   2.932611e-02   8.793324e-05
  7.563960e-01   2.875445e-02   8.748396e-05
  7.611229e-01   2.820885e-02   8.699939e-05
  7.658498e-01   2.764480e-02   8.653845e-05
  7.705767e-01   2.706402e-02   8.605842e-05
  7.753036e-01   2.645386e-02   8.557285e-05
  7.800305e-01   2.584265e-02   8.510051e-05
  7.847573e-01   2.526368e-02   8.460945e-05
  7.894842e-01   2.471251e-02   8.418905e-05
  7.942110e-01   2.418812e-02   8.371281e-05
  7.989379e-01   2.370100e-02   8.329003e-05
  8.036647e-01   2.318583e-02   8.286422e-05
  8.083915e-01   2.267092e-02   8.241098e-05
  8.131183e-01   2.219501e-02   8.201134e-05
  8.178451e-01   2.172204e-02   8.161595e-05
  8.225719e-01   2.124820e-02   8.130320e-05
  8.272987e-01   2.077273e-02   8.097902e-05
  8.320254e-01   2.028742e-02   8.064545e-05
  8.367522e-01   1.983118e-02   8.040822e-05
  8.414789e-01   1.939663e-02   8.014521e-05
  8.462056e-01   1.897320e-02   7.991616e-05
  8.509323e-01   1.858559e-02   7.965993e-05
  8.556590e-01   1.820849e-02   7.942703e-05
  8.603857e-01   1.781715e-02   7.918753e-05
  8.651124e-01   1.734744e-02   7.885340e-05
  8.698391e-01   1.685641e-02   7.855835e-05
  8.745657e-01   1.641261e-02   7.826938e-05
  8.792924e-01   1.605377e-02   7.807832e-05
  8.840190e-01   1.574081e-02   7.789006e-05
  8.887456e-01   1.542206e-02   7.764672e-05
  8.934722e-01   1.510166e-02   7.743440e-05
  8.981988e-01   1.476543e-02   7.720376e-05
  9.029254e-01   1.440974e-02   7.699369e-05
  9.076520e-01   1.405808e-02   7.673959e-05
  9.123785e-01   1.372601e-02   7.650930e-05
  9.171051e-01   1.342862e-02   7.635371e-05
  9.218316e-01   1.314247e-02   7.613881e-05
  9.265581e-01   1.283083e-02   7.589585e-05
  9.312847e-01   1.252418e-02   7.563679e-05
  9.360111e-01   1.223029e-02   7.544657e-05
  9.407376e-01   1.194613e-02   7.525186e-05
  9.454641e-01   1.168169e-02   7.502953e-05
  9.501906e-01   1.141808e-02   7.486069e-05
  9.549170e-01   1.112408e-02   7.465048e-05
  9.596434e-01   1.081216e-02   7.444534e-05
  9.643698e-01   1.052165e-02   7.422300e-05
  9.690963e-01   1.023035e-02   7.402464e-05
  9.738226e-01   9.929703e-03   7.381967e-05
  9.785490e-01   9.677667e-03   7.361822e-05
  9.832754e-01   9.474436e-03   7.346191e-05
  9.880017e-01   9.280371e-03   7.327866e-05
  9.927281e-01   9.090563e-03   7.311928e-05
  9.974544e-01   8.901372e-03   7.296179e-05
  1.002181e+00   8.667777e-03   7.279269e-05
  1.006907e+00   8.429648e-03   7.260263e-05
  1.011633e+00   8.202136e-03   7.237727e-05
  1.016360e+00   8.017222e-03   7.227206e-05
  1.021086e+00   7.860874e-03   7.211677e-05
  1.025812e+00   7.656489e-03   7.194945e-05
  1.030538e+00   7.433978e-03   7.175649e-05
  1.035265e+00   7.232136e-03   7.160092e-05
  1.039991e+00   7.068468e-03   7.144715e-05
  1.044717e+00   6.919360e-03   7.128534e-05
  1.049443e+00   6.758648e-03   7.115472e-05
  1.054169e+00   6.588286e-03   7.100720e-05
  1.058895e+00   6.422761e-03   7.082747e-05
  1.063622e+00   6.264639e-03   7.073700e-05
  1.068348e+00   6.082038e-03   7.057821e-05
  1.073074e+00   5.927144e-03   7.043653e-05
  1.077800e+00   5.829810e-03   7.031690e-05
  1.082526e+00   5.727048e-03   7.021693e-05
  1.087252e+00   5.593759e-03   7.010568e-05
  1.091978e+00   5.453496e-03   6.995191e-05
  1.096704e+00   5.334356e-03   6.982862e-05
  1.101430e+00   5.227443e-03   6.969401e-05
  1.106156e+00   5.094078e-03   6.956668e-05
  1.110882e+00   4.918480e-03   6.942293e-05
  1.115608e+00   4.738813e-03   6.926117e-05
  1.120334e+00   4.602779e-03   6.914757e-05
  1.125060e+00   4.519310e-03   6.903768e-05
  1.129786e+00   4.457089e-03   6.895164e-05
  1.134512e+00   4.381751e-03   6.882828e-05
  1.139238e+00   4.288300e-03   6.873930e-05
  1.143963e+00   4.164439e-03   6.862362e-05
  1.148689e+00   4.056895e-03   6.849973e-05
  1.153415e+00   3.990887e-03   6.840614e-05
  1.158141e+00   3.913664e-03   6.829195e-05
  1.162867e+00   3.808022e-03   6.816339e-05
  1.167593e+00   3.690255e-03   6.806147e-05
  1.172318e+00   3.569748e-03   6.791394e-05
  1.177044e+00   3.494181e-03   6.784744e-05
  1.181770e+00   3.447946e-03   6.776014e-05
  1.186496e+00   3.359339e-03   6.766672e-05
  1.191221e+00   3.274233e-03   6.753941e-05
  1.195947e+00   3.202294e-03   6.744033e-05
  1.200673e+00   3.140841e-03   6.737886e-05
  1.205398e+00   3.095461e-03   6.725652e-05
  1.210124e+00   3.052359e-03   6.719401e-05
  1.214850e+00   2.997689e-03   6.712465e-05
  1.219575e+00   2.912774e-03   6.698691e-05
  1.224301e+00   2.802341e-03   6.690349e-05
  1.229026e+00   2.714395e-03   6.677285e-05
  1.233752e+00   2.694557e-03   6.672395e-05
  1.238478e+00   2.685597e-03   6.668455e-05
  1.243203e+00   2.646466e-03   6.659035e-05
  1.247929e+00   2.597344e-03   6.652075e-05
  1.252654e+00   2.574434e-03   6.640805e-05
  1.257380e+00   2.531672e-03   6.636253e-05
  1.262105e+00   2.451849e-03   6.621698e-05
  1.266831e+00   2.396432e-03   6.616174e-05
  1.271556e+00   2.375663e-03   6.610592e-05
  1.276281e+00   2.346496e-03   6.601146e-05
  1.281007e+00   2.286129e-03   6.595008e-05
  1.285732e+00   2.209398e-03   6.580173e-05
  1.290458e+00   2.167809e-03   6.576043e-05
  1.295183e+00   2.162768e-03   6.570413e-05
  1.299908e+00   2.162946e-03   6.561213e-05
  1.304634e+00   2.140740e-03   6.556154e-05
  1.309359e+00   2.091210e-03   6.546325e-05
  1.314084e+00   2.021601e-03   6.537126e-05
  1.318809e+00   1.957603e-03   6.524462e-05
  1.323535e+00   1.888813e-03   6.520806e-05
  1.328260e+00   1.841983e-03   6.514982e-05
  1.332985e+00   1.846854e-03   6.509669e-05
  1.337710e+00   1.866910e-03   6.504926e-05
  1.342435e+00   1.871513e-03   6.495365e-05
  1.347161e+00   1.855004e-03   6.490993e-05
  1.351886e+00   1.828838e-03   6.483094e-05
  1.356611e+00   1.797320e-03   6.476918e-05
  1.361336e+00   1.759651e-03   6.471395e-05
  1.366061e+00   1.720798e-03   6.463083e-05
  1.370786e+00   1.693639e-03   6.456933e-05
  1.375511e+00   1.698249e-03   6.449955e-05
  1.380236e+00   1.700949e-03   6.445076e-05
  1.384961e+00   1.689003e-03   6.440429e-05
  1.389686e+00   1.661415e-03   6.433334e-05
  1.394411e+00   1.621530e-03   6.425707e-05
  1.399136e+00   1.599766e-03   6.417641e-05
  1.403861e+00   1.587661e-03   6.412548e-05
  1.408586e+00   1.555642e-03   6.403858e-05
  1.413311e+00   1.522358e-03   6.397845e-05
  1.418035e+00   1.545779e-03   6.392318e-05
  1.422760e+00   1.564369e-03   6.387385e-05
  1.427485e+00   1.550151e-03   6.382109e-05
  1.432210e+00   1.541884e-03   6.374726e-05
  1.436935e+00   1.540478e-03   6.369432e-05
  1.441660e+00   1.542312e-03   6.368109e-05
  1.446384e+00   1.543087e-03   6.358660e-05
  1.451109e+00   1.537554e-03   6.350903e-05
  1.455834e+00   1.527604e-03   6.344867e-05
  1.460558e+00   1.507976e-03   6.336462e-05
  1.465283e+00   1.475062e-03   6.328224e-05
  1.470008e+00   1.437025e-03   6.320744e-05
  1.474732e+00   1.404523e-03   6.310910e-05
  1.479457e+00   1.408753e-03   6.304416e-05
  1.484182e+00   1.415799e-03   6.302031e-05
  1.488906e+00   1.413176e-03   6.291647e-05
  1.493631e+00   1.389233e-03   6.285340e-05
  1.498355e+00   1.374443e-03   6.276011e-05
  1.503080e+00   1.374330e-03   6.271908e-05
  1.507804e+00   1.380482e-03   6.263949e-05
  1.512529e+00   1.403913e-03   6.261153e-05
  1.517253e+00   1.438054e-03   6.256897e-05
  1.521978e+00   1.451425e-03   6.253911e-05
  1.526702e+00   1.433859e-03   6.245579e-05
  1.531426e+00   1.408937e-03   6.235153e-05
  1.536151e+00   1.386152e-03   6.228291e-05
  1.540875e+00   1.369822e-03   6.222173e-05
  1.545599e+00   1.370801e-03   6.212581e-05
  1.550324e+00   1.364409e-03   6.207892e-05
  1.555048e+00   1.359332e-03   6.202986e-05
  1.559772e+00   1.366019e-03   6.195264e-05
  1.564497e+00   1.369508e-03   6.193059e-05
  1.569221e+00   1.379563e-03   6.186393e-05
  1.573945e+00   1.389769e-03   6.182666e-05
  1.578669e+00   1.406321e-03   6.179224e-05
  1.583393e+00   1.433348e-03   6.173177e-05
  1.588117e+00   1.435613e-03   6.164129e-05
  1.592842e+00   1.408705e-03   6.156858e-05
  1.597566e+00   1.375856e-03   6.151343e-05
  1.602290e+00   1.343696e-03   6.144266e-05
  1.607014e+00   1.325228e-03   6.136357e-05
  1.611738e+00   1.327483e-03   6.131816e-05
  1.616462e+00   1.329909e-03   6.125321e-05
  1.621186e+00   1.331985e-03   6.119669e-05
  1.625910e+00   1.335215e-03   6.112645e-05
  1.630634e+00   1.353268e-03   6.106915e-05
  1.635358e+00   1.364144e-03   6.103954e-05
  1.640081e+00   1.348242e-03   6.094171e-05
  1.644805e+00   1.343875e-03   6.089525e-05
  1.649529e+00   1.348087e-03   6.083190e-05
  1.654253e+00   1.343630e-03   6.076677e-05
  1.658977e+00   1.310809e-03   6.069397e-05
  1.663701e+00   1.282490e-03   6.065347e-05
  1.668424e+00   1.302745e-03   6.060223e-05
  1.673148e+00   1.321242e-03   6.054369e-05
  1.677872e+00   1.342833e-03   6.052626e-05
  1.682595e+00   1.391361e-03   6.046943e-05
  1.687319e+00   1.411288e-03   6.041508e-05
  1.692043e+00   1.364052e-03   6.035729e-05
  1.696766e+00   1.303254e-03   6.025031e-05
  1.701490e+00   1.271180e-03   6.019938e-05
  1.706214e+00   1.274084e-03   6.017750e-05
  1.710937e+00   1.300492e-03   6.012929e-05
  1.715661e+00   1.312526e-03   6.010537e-05
  1.720384e+00   1.331036e-03   6.002897e-05
  1.725108e+00   1.337127e-03   6.000025e-05
  1.729831e+00   1.308853e-03   5.988266e-05
  1.734555e+00   1.277807e-03   5.982885e-05
  1.739278e+00   1.272863e-03   5.977198e-05
  1.744001e+00   1.285353e-03   5.970222e-05
  1.748725e+00   1.286575e-03   5.966857e-05
  1.753448e+00   1.297651e-03   5.960743e-05
  1.758171e+00   1.309721e-03   5.954742e-05
  1.762895e+00   1.303206e-03   5.950274e-05
  1.767618e+00   1.272934e-03   5.943483e-05
  1.772341e+00   1.251279e-03   5.938655e-05
  1.777064e+00   1.245404e-03   5.930929e-05
  1.781788e+00   1.245129e-03   5.928134e-05
  1.786511e+00   1.247548e-03   5.920774e-05
  1.791234e+00   1.257198e-03   5.916250e-05
  1.795957e+00   1.267788e-03   5.911308e-05
  1.800680e+00   1.254392e-03   5.902196e-05
  1.805403e+00   1.231974e-03   5.890218e-05
  1.810126e+00   1.213424e-03   5.875696e-05
  1.814849e+00   1.226547e-03   5.864626e-05
  1.819572e+00   1.251485e-03   5.853327e-05
  1.824295e+00   1.271349e-03   5.841264e-05
  1.829018e+00   1.286841e-03   5.829094e-05
  1.833741e+00   1.292412e-03   5.816090e-05
  1.838464e+00   1.252109e-03   5.802296e-05
  1.843187e+00   1.195403e-03   5.784934e-05
  1.847910e+00   1.172619e-03   5.771082e-05
  1.852633e+00   1.191860e-03   5.763477e-05
  1.857355e+00   1.235107e-03   5.751982e-05
  1.862078e+00   1.234725e-03   5.740875e-05
  1.866801e+00   1.201614e-03   5.727059e-05
  1.871524e+00   1.185483e-03   5.719593e-05
  1.876246e+00   1.196043e-03   5.716657e-05
  1.880969e+00   1.198142e-03   5.744855e-05
  1.885692e+00   1.189413e-03   5.814189e-05
  1.890414e+00   1.174988e-03   5.874376e-05
  1.895137e+00   1.171545e-03   5.925629e-05
  1.899859e+00   1.174984e-03   5.958915e-05
  1.904582e+00   1.184961e-03   5.992055e-05
  1.909304e+00   1.192174e-03   6.015234e-05
  1.914027e+00   1.199885e-03   6.035052e-05
  1.918749e+00   1.203542e-03   6.042889e-05
  1.923472e+00   1.198582e-03   6.048128e-05
  1.928194e+00   1.176862e-03   6.055366e-05
  1.932917e+00   1.148786e-03   6.095384e-05
  1.937639e+00   1.141926e-03   6.184584e-05
  1.942361e+00   1.134669e-03   6.279097e-05
  1.947084e+00   1.129060e-03   6.356352e-05
  1.951806e+00   1.129106e-03   6.406812e-05
  1.956528e+00   1.122237e-03   6.402552e-05
  1.961251e+00   1.105966e-03   6.346278e-05
  1.965973e+00   1.097363e-03   6.290417e-05
  1.970695e+00   1.101841e-03   6.253674e-05
  1.975417e+00   1.100165e-03   6.231191e-05
  1.980139e+00   1.104623e-03   6.214107e-05
  1.984861e+00   1.126535e-03   6.202131e-05
  1.989583e+00   1.163813e-03   6.191597e-05
  1.994305e+00   1.165824e-03   6.181598e-05
  1.999027e+00   1.112324e-03   6.172423e-05
  2.003749e+00   1.049344e-03   6.162431e-05
  2.008471e+00   1.013065e-03   6.153994e-05
  2.013193e+00   1.013923e-03   6.139499e-05
  2.017915e+00   1.022798e-03   6.122140e-05
  2.022637e+00   1.028023e-03   6.104635e-05
  2.027359e+00   1.040578e-03   6.085564e-05
  2.032081e+00   1.030356e-03   6.067617e-05
  2.036803e+00   1.016013e-03   6.051693e-05
  2.041524e+00   1.023505e-03   6.035104e-05
  2.046246e+00   1.042973e-03   6.020656e-05
  2.050968e+00   1.059907e-03   6.007877e-05
  2.055689e+00   1.050518e-03   5.991965e-05
  2.060411e+00   1.023430e-03   5.976227e-05
  2.065133e+00   9.946921e-04   5.964232e-05
  2.069854e+00   9.610094e-04   5.945518e-05
  2.074576e+00   9.429167e-04   5.933104e-05
  2.079297e+00   9.775198e-04   5.920762e-05
  2.084019e+00   1.033189e-03   5.912447e-05
  2.088740e+00   1.042963e-03   5.899033e-05
  2.093462e+00   1.016575e-03   5.885872e-05
  2.098183e+00   9.938450e-04   5.869685e-05
  2.102905e+00   9.810247e-04   5.860523e-05
  2.107626e+00   9.821609e-04   5.845687e-05
  2.112348e+00   9.726181e-04   5.835546e-05
  2.117069e+00   9.439665e-04   5.821124e-05
  2.121790e+00   9.146223e-04   5.808859e-05
  2.126511e+00   9.045247e-04   5.794792e-05
  2.131233e+00   9.105288e-04   5.784245e-05
  2.135954e+00   9.341608e-04   5.774201e-05
  2.140675e+00   9.575412e-04   5.764164e-05
  2.145396e+00   9.544476e-04   5.754881e-05
  2.150117e+00   9.272876e-04   5.741884e-05
  2.154838e+00   9.137705e-04   5.729836e-05
  2.159559e+00   9.060238e-04   5.719386e-05
  2.164280e+00   8.744544e-04   5.707379e-05
  2.169001e+00   8.475295e-04   5.696955e-05
  2.173722e+00   8.568809e-04   5.686286e-05
  2.178443e+00   8.663493e-04   5.676987e-05
  2.183164e+00   8.703707e-04   5.666798e-05
  2.187885e+00   8.724552e-04   5.655566e-05
  2.192606e+00   8.842345e-04   5.646570e-05
  2.197327e+00   8.842309e-04   5.635272e-05
  2.202048e+00   8.579308e-04   5.626482e-05
  2.206768e+00   8.253588e-04   5.612169e-05
  2.211489e+00   8.201080e-04   5.602678e-05
  2.216210e+00   8.609820e-04   5.595848e-05
  2.220931e+00   9.010801e-04   5.589713e-05
  2.225651e+00   9.067020e-04   5.578289e-05
  2.230372e+00   8.815622e-04   5.568912e-05
  2.235092e+00   8.376384e-04   5.556000e-05
  2.239813e+00   8.179480e-04   5.547804e-05
  2.244533e+00   8.080165e-04   5.534849e-05
  2.249254e+00   7.687222e-04   5.526825e-05
  2.253974e+00   7.431239e-04   5.513681e-05
  2.258695e+00   7.563369e-04   5.508711e-05
  2.263415e+00   7.757416e-04   5.498714e-05
  2.268136e+00   8.058999e-04   5.492625e-05
  2.272856e+00   8.277892e-04   5.485556e-05
  2.277576e+00   8.201942e-04   5.475507e-05
  2.282296e+00   8.193377e-04   5.465522e-05
  2.287017e+00   8.503541e-04   5.460049e-05
  2.291737e+00   8.619454e-04   5.452571e-05
  2.296457e+00   8.356329e-04   5.443469e-05
  2.301177e+00   8.082862e-04   5.433171e-05
  2.305897e+00   7.926246e-04   5.424874e-05
  2.310617e+00   7.753351e-04   5.413758e-05
